%time,field.data
1589275809745134149,-0.2
1589275809745241025,-0.199999998153
1589275809751967891,-0.199999985259
1589275809758688983,-0.199999950374
1589275809765281505,-0.199999882664
1589275809772020018,-0.199999771402
1589275809778694722,-0.199999605976
1589275809785344757,-0.199999375879
1589275809792010828,-0.199999070714
1589275809798637219,-0.199998680193
1589275809805283670,-0.199998194136
1589275809811996364,-0.199997602471
1589275809818633640,-0.199996895232
1589275809825289766,-0.199996062562
1589275809831941242,-0.19999509471
1589275809838584972,-0.199993982031
1589275809845343661,-0.199992714986
1589275809851955745,-0.199991284141
1589275809858615355,-0.199989680168
1589275809865319752,-0.199987893844
1589275809871990803,-0.199985916049
1589275809878631965,-0.19998373777
1589275809885312885,-0.199981350094
1589275809891965450,-0.199978744213
1589275809898642942,-0.199975911424
1589275809905368485,-0.199972843123
1589275809912021001,-0.199969530811
1589275809918661544,-0.199965966088
1589275809925374891,-0.199962140659
1589275809932008541,-0.199958046328
1589275809938701731,-0.199953675
1589275809945347580,-0.19994901868
1589275809952001187,-0.199944069474
1589275809958673039,-0.199938819587
1589275809965388165,-0.199933261323
1589275809971995181,-0.199927387085
1589275809978696530,-0.199921189376
1589275809985271290,-0.199914660795
1589275809991920612,-0.19990779404
1589275809998653720,-0.199900581905
1589275810005281855,-0.199893017284
1589275810011930378,-0.199885093165
1589275810018606008,-0.199876802632
1589275810025262198,-0.199868138867
1589275810031945002,-0.199859095147
1589275810038591539,-0.199849664844
1589275810045296495,-0.199839841423
1589275810051919049,-0.199829618446
1589275810058607303,-0.199818989568
1589275810065298029,-0.199807948538
1589275810071912967,-0.199796489198
1589275810078568785,-0.199784605482
1589275810085401838,-0.19977229142
1589275810091982931,-0.19975954113
1589275810098580533,-0.199746348824
1589275810105304898,-0.199732708806
1589275810111923893,-0.19971861547
1589275810118613067,-0.199704063301
1589275810125313935,-0.199689046874
1589275810131934533,-0.199673560856
1589275810138647198,-0.1996576
1589275810145366995,-0.199641159152
1589275810151905106,-0.199624233244
1589275810158581146,-0.199606817299
1589275810165245217,-0.199588906426
1589275810171995608,-0.199570495824
1589275810178635612,-0.199551580776
1589275810185259666,-0.199532156656
1589275810191994325,-0.199512218921
1589275810198697237,-0.199491763118
1589275810205280984,-0.199470784877
1589275810212054338,-0.199449279914
1589275810218604628,-0.199427244032
1589275810225299542,-0.199404673117
1589275810232030597,-0.19938156314
1589275810238639858,-0.199357910156
1589275810245377509,-0.199333710304
1589275810251903780,-0.199308959807
1589275810258637362,-0.199283654968
1589275810265349745,-0.199257792176
1589275810271979430,-0.199231367901
1589275810278671067,-0.199204378695
1589275810285342004,-0.19917682119
1589275810292050019,-0.199148692101
1589275810298657677,-0.199119988224
1589275810305403765,-0.199090706433
1589275810312035812,-0.199060843685
1589275810318633798,-0.199030397013
1589275810325292397,-0.198999363533
1589275810331882513,-0.198967740438
1589275810338657629,-0.198935525
1589275810345322001,-0.198902714568
1589275810352029663,-0.19886930657
1589275810358636496,-0.198835298512
1589275810365349488,-0.198800687975
1589275810371925278,-0.198765472618
1589275810378671394,-0.198729650176
1589275810385334316,-0.198693218461
1589275810392000509,-0.198656175358
1589275810398614081,-0.19861851883
1589275810405322496,-0.198580246914
1589275810412039250,-0.198541357719
1589275810418618528,-0.198501849432
1589275810425307110,-0.198461720311
1589275810431975509,-0.198420968688
1589275810438661717,-0.198379592969
1589275810445319803,-0.19833759163
1589275810452017345,-0.198294963223
1589275810458638834,-0.198251706368
1589275810465314780,-0.198207819759
1589275810471966295,-0.19816330216
1589275810478641450,-0.198118152407
1589275810485316889,-0.198072369405
1589275810491993522,-0.198025952129
1589275810498645905,-0.197978899624
1589275810505339141,-0.197931211005
1589275810511991758,-0.197882885455
1589275810518627906,-0.197833922226
1589275810525383273,-0.197784320637
1589275810532016863,-0.197734080077
1589275810538730228,-0.1976832
1589275810545322140,-0.197631679929
1589275810551954296,-0.197579519452
1589275810558654685,-0.197526718224
1589275810565381339,-0.197473275967
1589275810572010311,-0.197419192467
1589275810578576034,-0.197364467576
1589275810585246730,-0.19730910121
1589275810592031900,-0.197253093351
1589275810598649045,-0.197196444043
1589275810605390069,-0.197139153395
1589275810611951114,-0.19708122158
1589275810618638575,-0.197022648832
1589275810625281971,-0.196963435449
1589275810631953005,-0.196903581792
1589275810638634215,-0.196843088281
1589275810645300513,-0.196781955401
1589275810651959609,-0.196720183695
1589275810658672212,-0.196657773768
1589275810665291682,-0.196594726286
1589275810671974185,-0.196531041975
1589275810678673115,-0.19646672162
1589275810685330568,-0.196401766064
1589275810692060085,-0.196336176212
1589275810698721861,-0.196269953024
1589275810705310909,-0.196203097521
1589275810711983043,-0.196135610781
1589275810718682158,-0.196067493938
1589275810725299777,-0.195998748185
1589275810731928418,-0.195929374771
1589275810738730917,-0.195859375
1589275810745268309,-0.195788750234
1589275810751948310,-0.195717501889
1589275810758582657,-0.195645631437
1589275810765238186,-0.195573140404
1589275810771956090,-0.195500030372
1589275810778593082,-0.195426302976
1589275810785369674,-0.195351959904
1589275810791993487,-0.195277002899
1589275810798659951,-0.195201433755
1589275810805379964,-0.195125254321
1589275810811947524,-0.195048466496
1589275810818686389,-0.194971072232
1589275810825267109,-0.194893073532
1589275810832030281,-0.194814472451
1589275810838627756,-0.194735271094
1589275810845302704,-0.194655471616
1589275810851942351,-0.194575076222
1589275810858650408,-0.194494087168
1589275810865317726,-0.194412506758
1589275810871989401,-0.194330337346
1589275810878649138,-0.194247581332
1589275810885364131,-0.194164241168
1589275810892075689,-0.19408031935
1589275810898626264,-0.193995818424
1589275810905319482,-0.193910740982
1589275810912036295,-0.193825089662
1589275810918632048,-0.193738867151
1589275810925355693,-0.193652076178
1589275810931970901,-0.19356471952
1589275810938656285,-0.1934768
1589275810945382531,-0.193388320483
1589275810951994317,-0.193299283881
1589275810958685516,-0.193209693149
1589275810965341945,-0.193119551286
1589275810972093877,-0.193028861333
1589275810978649090,-0.192937626376
1589275810985336759,-0.192845849543
1589275810992010911,-0.192753534003
1589275810998682296,-0.192660682968
1589275811005329741,-0.192567299691
1589275811012007231,-0.192473387468
1589275811018715600,-0.192378949632
1589275811025355257,-0.19228398956
1589275811032048018,-0.192188510666
1589275811038751714,-0.192092516406
1589275811045334707,-0.191996010275
1589275811052049795,-0.191898995805
1589275811058648369,-0.191801476568
1589275811065396304,-0.191703456174
1589275811072086998,-0.191604938272
1589275811078701840,-0.191505926545
1589275811085331780,-0.191406424716
1589275811091978143,-0.191306436544
1589275811098702242,-0.191205965824
1589275811105392805,-0.191105016387
1589275811112032874,-0.191003592099
1589275811118631423,-0.190901696863
1589275811125396492,-0.190799334615
1589275811132052438,-0.190696509325
1589275811138726889,-0.190593225
1589275811145289207,-0.190489485677
1589275811151939274,-0.19038529543
1589275811158617421,-0.190280658362
1589275811165273272,-0.190175578612
1589275811171988494,-0.190070060349
1589275811178566654,-0.189964107776
1589275811185285093,-0.189857725125
1589275811191961861,-0.189750916662
1589275811198616616,-0.18964368668
1589275811205360137,-0.189536039506
1589275811211942445,-0.189427979495
1589275811218645392,-0.189319511032
1589275811225266459,-0.189210638531
1589275811232052673,-0.189101366436
1589275811239874809,-0.188991699219
1589275811245342119,-0.188881641378
1589275811252017617,-0.188771197443
1589275811258690529,-0.188660371968
1589275811265366146,-0.188549169535
1589275811272060673,-0.188437594753
1589275811278648128,-0.188325652257
1589275811285305095,-0.188213346709
1589275811292068319,-0.188100682794
1589275811298671970,-0.187987665224
1589275811305308914,-0.187874298736
1589275811312007378,-0.187760588092
1589275811318669133,-0.187646538076
1589275811325336631,-0.187532153496
1589275811332023088,-0.187417439186
1589275811338608212,-0.1873024
1589275811345298388,-0.187187040816
1589275811352020017,-0.187071366533
1589275811358640678,-0.186955382074
1589275811365293020,-0.186839092382
1589275811371992489,-0.186722502421
1589275811378688162,-0.186605617176
1589275811385298450,-0.186488441653
1589275811391985322,-0.186370980877
1589275811398605117,-0.186253239893
1589275811405308619,-0.186135223765
1589275811411970444,-0.186016937578
1589275811418687135,-0.185898386432
1589275811425394557,-0.185779575448
1589275811431983273,-0.185660509762
1589275811438643990,-0.185541194531
1589275811445339886,-0.185421634927
1589275811452045063,-0.185301836137
1589275811458662088,-0.185181803368
1589275811465387216,-0.18506154184
1589275811472028289,-0.18494105679
1589275811478612082,-0.18482035347
1589275811485288623,-0.184699437146
1589275811492017502,-0.184578313099
1589275811498726068,-0.184456986624
1589275811505379201,-0.18433546303
1589275811511979317,-0.18421374764
1589275811518661832,-0.184091845788
1589275811525350899,-0.183969762822
1589275811532024755,-0.183847504102
1589275811538690656,-0.183725075
1589275811545308919,-0.183602480899
1589275811552015249,-0.183479727192
1589275811558704322,-0.183356819287
1589275811565334936,-0.183233762597
1589275811571984680,-0.183110562548
1589275811578637820,-0.182987224576
1589275811585391014,-0.182863754125
1589275811592032617,-0.182740156647
1589275811598623791,-0.182616437605
1589275811605313765,-0.182492602469
1589275811611983328,-0.182368656716
1589275811618714596,-0.182244605832
1589275811625329200,-0.182120455308
1589275811631951288,-0.181996210644
1589275811638592769,-0.181871877344
1589275811645301339,-0.181747460919
1589275811651965421,-0.181622966887
1589275811658606401,-0.181498400768
1589275811665337554,-0.18137376809
1589275811671985584,-0.181249074383
1589275811678662914,-0.181124325182
1589275811685421815,-0.180999526027
1589275811692062634,-0.180874682459
1589275811698662732,-0.180749800024
1589275811705319057,-0.180624884269
1589275811712002262,-0.180499940744
1589275811718668618,-0.180374975001
1589275811725344125,-0.180249992593
1589275811732014644,-0.180124999074
1589275811738749410,-0.18
1589275811745356263,-0.179875000926
1589275811751981714,-0.179750007407
1589275811758652440,-0.179625024999
1589275811765339452,-0.179500059256
1589275811771968195,-0.179375115731
1589275811778701774,-0.179250199976
1589275811785269234,-0.179125317541
1589275811791969745,-0.179000473973
1589275811798613750,-0.178875674818
1589275811805335125,-0.178750925617
1589275811812027640,-0.17862623191
1589275811818730829,-0.178501599232
1589275811825312295,-0.178377033113
1589275811831993346,-0.178252539081
1589275811838596535,-0.178128122656
1589275811845239241,-0.178003789356
1589275811851928437,-0.177879544692
1589275811858628003,-0.177755394168
1589275811865314669,-0.177631343284
1589275811872013403,-0.177507397531
1589275811878606037,-0.177383562395
1589275811885293352,-0.177259843353
1589275811891996123,-0.177136245875
1589275811898614399,-0.177012775424
1589275811905276341,-0.176889437452
1589275811911957169,-0.176766237403
1589275811918651454,-0.176643180713
1589275811925285494,-0.176520272808
1589275811931995559,-0.176397519101
1589275811938829972,-0.176274925
1589275811945305632,-0.176152495898
1589275811952021326,-0.176030237178
1589275811958611427,-0.175908154212
1589275811965256916,-0.17578625236
1589275811971898473,-0.17566453697
1589275811978574467,-0.175543013376
1589275811985291297,-0.175421686901
1589275811991943220,-0.175300562854
1589275811998683030,-0.17517964653
1589275812005349699,-0.17505894321
1589275812011946993,-0.17493845816
1589275812018599830,-0.174818196632
1589275812025365415,-0.174698163863
1589275812031991014,-0.174578365073
1589275812038663428,-0.174458805469
1589275812045329483,-0.174339490238
1589275812051953421,-0.174220424552
1589275812058606993,-0.174101613568
1589275812065376239,-0.173983062422
1589275812072036261,-0.173864776235
1589275812078664638,-0.173746760107
1589275812085347249,-0.173629019123
1589275812092005303,-0.173511558347
1589275812098758139,-0.173394382824
1589275812105341302,-0.173277497579
1589275812111959022,-0.173160907618
1589275812118620236,-0.173044617926
1589275812125324816,-0.172928633467
1589275812131996276,-0.172812959184
1589275812138634296,-0.1726976
1589275812145258594,-0.172582560814
1589275812151967336,-0.172467846504
1589275812158700661,-0.172353461924
1589275812165332705,-0.172239411908
1589275812172001088,-0.172125701264
1589275812178733997,-0.172012334776
1589275812185391476,-0.171899317206
1589275812191953733,-0.171786653291
1589275812198659478,-0.171674347743
1589275812205347925,-0.171562405247
1589275812211960848,-0.171450830465
1589275812218666524,-0.171339628032
1589275812225416656,-0.171228802557
1589275812232085307,-0.171118358622
1589275812238718398,-0.171008300781
1589275812245378831,-0.170898633564
1589275812251965184,-0.170789361469
1589275812258668834,-0.170680488968
1589275812265324845,-0.170572020505
1589275812272000591,-0.170463960494
1589275812278680207,-0.17035631332
1589275812285323638,-0.170249083338
1589275812292005117,-0.170142274875
1589275812298644930,-0.170035892224
1589275812305376456,-0.169929939651
1589275812312003740,-0.169824421388
1589275812318728042,-0.169719341638
1589275812325308479,-0.16961470457
1589275812332011087,-0.169510514323
1589275812338712309,-0.169406775
1589275812345314031,-0.169303490675
1589275812351949985,-0.169200665385
1589275812358654087,-0.169098303137
1589275812365371636,-0.168996407901
1589275812372010677,-0.168894983613
1589275812378662519,-0.168794034176
1589275812385370088,-0.168693563456
1589275812392030319,-0.168593575284
1589275812398725466,-0.168494073455
1589275812405353952,-0.168395061728
1589275812411959502,-0.168296543826
1589275812418639573,-0.168198523432
1589275812425395681,-0.168101004195
1589275812432021967,-0.168003989725
1589275812438645922,-0.167907483594
1589275812445301800,-0.167811489334
1589275812452019890,-0.16771601044
1589275812458673798,-0.167621050368
1589275812465290753,-0.167526612532
1589275812472013604,-0.167432700309
1589275812478663767,-0.167339317032
1589275812485360529,-0.167246465997
1589275812492006237,-0.167154150457
1589275812498606206,-0.167062373624
1589275812505287699,-0.166971138667
1589275812511999236,-0.166880448714
1589275812518646984,-0.166790306851
1589275812525286286,-0.166700716119
1589275812532015048,-0.166611679517
1589275812538715494,-0.1665232
1589275812545366788,-0.16643528048
1589275812551968318,-0.166347923822
1589275812558641361,-0.166261132849
1589275812565259313,-0.166174910338
1589275812571942651,-0.166089259018
1589275812578639037,-0.166004181576
1589275812585289273,-0.16591968065
1589275812591980905,-0.165835758832
1589275812598705815,-0.165752418668
1589275812605368492,-0.165669662654
1589275812612045097,-0.165587493242
1589275812618629263,-0.165505912832
1589275812625291410,-0.165424923778
1589275812631955327,-0.165344528384
1589275812638737234,-0.165264728906
1589275812645396208,-0.165185527549
1589275812652056597,-0.165106926468
1589275812658626275,-0.165028927768
1589275812665308768,-0.164951533504
1589275812671964896,-0.164874745679
1589275812678699126,-0.164798566245
1589275812685341896,-0.164722997101
1589275812691984016,-0.164648040096
1589275812698624542,-0.164573697024
1589275812705383717,-0.164499969628
1589275812711977741,-0.164426859596
1589275812718630877,-0.164354368563
1589275812725366791,-0.164282498111
1589275812732046198,-0.164211249766
1589275812738710690,-0.164140625
1589275812745395643,-0.164070625229
1589275812752073747,-0.164001251815
1589275812758742787,-0.163932506062
1589275812765349166,-0.163864389219
1589275812771995837,-0.163796902479
1589275812778667461,-0.163730046976
1589275812785331102,-0.163663823788
1589275812792002375,-0.163598233936
1589275812798666664,-0.16353327838
1589275812805397689,-0.163468958025
1589275812812003581,-0.163405273714
1589275812818693927,-0.163342226232
1589275812825365533,-0.163279816305
1589275812831954635,-0.163218044599
1589275812838700190,-0.163156911719
1589275812845363542,-0.163096418208
1589275812851971802,-0.163036564551
1589275812858702050,-0.162977351168
1589275812865363230,-0.16291877842
1589275812872042217,-0.162860846605
1589275812878693738,-0.162803555957
1589275812885381589,-0.162746906649
1589275812892070445,-0.16269089879
1589275812898707650,-0.162635532424
1589275812905372760,-0.162580807533
1589275812912016486,-0.162526724033
1589275812918711221,-0.162473281776
1589275812925291492,-0.162420480548
1589275812932023214,-0.162368320071
1589275812938682085,-0.1623168
1589275812945295907,-0.162265919923
1589275812951969670,-0.162215679363
1589275812958656086,-0.162166077774
1589275812965357557,-0.162117114545
1589275812972059287,-0.162068788995
1589275812978744431,-0.162021100376
1589275812985379977,-0.161974047871
1589275812992054590,-0.161927630595
1589275812998715950,-0.161881847593
1589275813005364690,-0.16183669784
1589275813011989848,-0.161792180241
1589275813018666944,-0.161748293632
1589275813025368666,-0.161705036777
1589275813032011131,-0.16166240837
1589275813038695249,-0.161620407031
1589275813045324943,-0.161579031312
1589275813052005407,-0.161538279689
1589275813058672671,-0.161498150568
1589275813065247161,-0.161458642281
1589275813071949351,-0.161419753086
1589275813078652868,-0.16138148117
1589275813085329103,-0.161343824642
1589275813091976806,-0.161306781539
1589275813098652219,-0.161270349824
1589275813105333858,-0.161234527382
1589275813112016431,-0.161199312025
1589275813118725950,-0.161164701488
1589275813125355227,-0.16113069343
1589275813131986140,-0.161097285432
1589275813138615926,-0.161064475
1589275813145374376,-0.161032259562
1589275813152009590,-0.161000636467
1589275813158683286,-0.160969602987
1589275813165329230,-0.160939156315
1589275813172023783,-0.160909293567
1589275813178673139,-0.160880011776
1589275813185326721,-0.160851307899
1589275813192050070,-0.16082317881
1589275813198680990,-0.160795621305
1589275813205321513,-0.160768632099
1589275813212011358,-0.160742207824
1589275813218681342,-0.160716345032
1589275813225362059,-0.160691040193
1589275813232022960,-0.160666289696
1589275813238694210,-0.160642089844
1589275813245359982,-0.16061843686
1589275813252017203,-0.160595326883
1589275813258700977,-0.160572755968
1589275813265384858,-0.160550720086
1589275813272000480,-0.160529215123
1589275813278680291,-0.160508236882
1589275813285346373,-0.160487781079
1589275813292033842,-0.160467843344
1589275813298649884,-0.160448419224
1589275813305365028,-0.160429504176
1589275813311968931,-0.160411093574
1589275813318706195,-0.160393182701
1589275813325329226,-0.160375766756
1589275813332009792,-0.160358840848
1589275813338688521,-0.1603424
1589275813345373735,-0.160326439144
1589275813352001692,-0.160310953126
1589275813358687313,-0.160295936699
1589275813365322671,-0.16028138453
1589275813372078940,-0.160267291194
1589275813378665844,-0.160253651176
1589275813385392955,-0.16024045887
1589275813392013895,-0.16022770858
1589275813398719906,-0.160215394518
1589275813405343247,-0.160203510802
1589275813411949534,-0.160192051462
1589275813418669464,-0.160181010432
1589275813425330347,-0.160170381554
1589275813431966801,-0.160160158577
1589275813438624233,-0.160150335156
1589275813445402225,-0.160140904853
1589275813452049766,-0.160131861133
