%time,field.data
1589276146214780992,-0.2
1589276146215066862,-0.199999997691
1589276146221643184,-0.199999981574
1589276146228323862,-0.199999937968
1589276146234960006,-0.199999853329
1589276146241672721,-0.199999714253
1589276146248317189,-0.19999950747
1589276146254993859,-0.199999219848
1589276146261662964,-0.199998838392
1589276146268266161,-0.199998350241
1589276146274968982,-0.19999774267
1589276146281592077,-0.199997003088
1589276146288325993,-0.19999611904
1589276146294998554,-0.199995078203
1589276146301614618,-0.199993868388
1589276146308276180,-0.199992477539
1589276146314998858,-0.199990893732
1589276146321672492,-0.199989105176
1589276146328289000,-0.19998710021
1589276146335002676,-0.199984867305
1589276146341743891,-0.199982395062
1589276146348397932,-0.199979672212
1589276146355004970,-0.199976687617
1589276146361727406,-0.199973430267
1589276146368302759,-0.19996988928
1589276146374973964,-0.199966053904
1589276146381636698,-0.199961913513
1589276146388290783,-0.19995745761
1589276146395041771,-0.199952675824
1589276146401740971,-0.19994755791
1589276146408383007,-0.19994209375
1589276146415020981,-0.19993627335
1589276146421682911,-0.199930086842
1589276146428314015,-0.199923524483
1589276146435024233,-0.199916576653
1589276146441657512,-0.199909233857
1589276146448375414,-0.19990148672
1589276146455039866,-0.199893325994
1589276146461693347,-0.19988474255
1589276146468316109,-0.199875727382
1589276146474913523,-0.199866271605
1589276146481611417,-0.199856366456
1589276146488298893,-0.19984600329
1589276146495024920,-0.199835173584
1589276146501779254,-0.199823868934
1589276146508265867,-0.199812081055
1589276146514956189,-0.199799801779
1589276146521585685,-0.199787023057
1589276146528365350,-0.19977373696
1589276146535013608,-0.199759935672
1589276146541703865,-0.199745611497
1589276146548308402,-0.199730756853
1589276146555082230,-0.199715364275
1589276146561744017,-0.199699426412
1589276146568326312,-0.19968293603
1589276146574899624,-0.199665886007
1589276146581576226,-0.199648269337
1589276146588367266,-0.199630079126
1589276146595038650,-0.199611308593
1589276146601600197,-0.199591951069
1589276146608243272,-0.199572
1589276146614936061,-0.19955144894
1589276146621621893,-0.199530291555
1589276146628262916,-0.199508521624
1589276146635018978,-0.199486133033
1589276146641725079,-0.19946311978
1589276146648427928,-0.19943947597
1589276146655145956,-0.199415195819
1589276146661692573,-0.199390273651
1589276146668317792,-0.199364703897
1589276146674984238,-0.199338481096
1589276146681641856,-0.199311599893
1589276146688389388,-0.19928405504
1589276146694926718,-0.199255841396
1589276146701678709,-0.199226953925
1589276146708353223,-0.199197387695
1589276146714987428,-0.19916713788
1589276146721663769,-0.199136199758
1589276146728289414,-0.19910456871
1589276146734986553,-0.19907224022
1589276146741666816,-0.199039209877
1589276146748349143,-0.199005473368
1589276146754987014,-0.198971026488
1589276146761680203,-0.198935865127
1589276146768370796,-0.19889998528
1589276146775023060,-0.198863383042
1589276146781644940,-0.198826054606
1589276146788289089,-0.198787996267
1589276146794971216,-0.198749204417
1589276146801678302,-0.198709675548
1589276146808371797,-0.19866940625
1589276146814991411,-0.19862839321
1589276146821661363,-0.198586633213
1589276146828338189,-0.19854412314
1589276146834953423,-0.198500859968
1589276146841661423,-0.198456840772
1589276146848314193,-0.19841206272
1589276146855013789,-0.198366523076
1589276146861689060,-0.198320219198
1589276146868303964,-0.198273148538
1589276146875007122,-0.198225308642
1589276146881675003,-0.198176697149
1589276146888325236,-0.19812731179
1589276146894981082,-0.198077150389
1589276146901651170,-0.19802621086
1589276146908407790,-0.197974491211
1589276146915057220,-0.197921989538
1589276146921706841,-0.197868704029
1589276146928374608,-0.19781463296
1589276146934964568,-0.197759774699
1589276146941641868,-0.197704127701
1589276146948355823,-0.197647690509
1589276146954958832,-0.197590461756
1589276146961633980,-0.197532440161
1589276146968371241,-0.19747362453
1589276146975034674,-0.197414013756
1589276146981704862,-0.197353606819
1589276146988351692,-0.197292402782
1589276146994991214,-0.197230400796
1589276147001734121,-0.197167600096
1589276147008421253,-0.197104
1589276147015074889,-0.197039599911
1589276147021661136,-0.196974399315
1589276147028309417,-0.19690839778
1589276147035001794,-0.196841594959
1589276147041707775,-0.196773990584
1589276147048352938,-0.19670558447
1589276147055055133,-0.196636376513
1589276147061686217,-0.196566366688
1589276147068289171,-0.196495555053
1589276147075085046,-0.196423941744
1589276147081608827,-0.196351526975
1589276147088341509,-0.19627831104
1589276147095000934,-0.196204294312
1589276147101662257,-0.19612947724
1589276147108319394,-0.196053860352
1589276147115018636,-0.195977444251
1589276147121721929,-0.195900229618
1589276147128398716,-0.19582221721
1589276147135027727,-0.195743407858
1589276147141677773,-0.195663802469
1589276147148287791,-0.195583402025
1589276147154959143,-0.19550220758
1589276147161621068,-0.195420220264
1589276147168375382,-0.19533744128
1589276147175043273,-0.195253871902
1589276147181619577,-0.195169513476
1589276147188439961,-0.195084367423
1589276147194999673,-0.194998435232
1589276147201662482,-0.194911718464
1589276147208335442,-0.19482421875
1589276147215013632,-0.194735937792
1589276147221669207,-0.194646877361
1589276147228287734,-0.194557039296
1589276147235041186,-0.194466425505
1589276147241693040,-0.194375037965
1589276147248392573,-0.19428287872
1589276147255023038,-0.19418994988
1589276147261663600,-0.194096253624
1589276147268334854,-0.194001792194
1589276147274979200,-0.193906567901
1589276147281713689,-0.19381058312
1589276147288306751,-0.19371384029
1589276147295019424,-0.193616341915
1589276147301756239,-0.193518090564
1589276147308355614,-0.193419088867
1589276147315036945,-0.193319339519
1589276147321687345,-0.193218845277
1589276147328306914,-0.19311760896
1589276147335001569,-0.193015633448
1589276147341699049,-0.192912921682
1589276147348419917,-0.192809476665
1589276147355021514,-0.19270530146
1589276147361633575,-0.192600399188
1589276147368371585,-0.19249477303
1589276147374982242,-0.192388426227
1589276147381615540,-0.192281362078
1589276147388407000,-0.192173583938
1589276147395042289,-0.192065095222
1589276147401662172,-0.1919558994
1589276147408278420,-0.191846
1589276147414983107,-0.191735400604
1589276147421640653,-0.191624104852
1589276147428406619,-0.191512116437
1589276147434975452,-0.191399439107
1589276147441626487,-0.191286076666
1589276147448313110,-0.19117203297
1589276147455082440,-0.191057311928
1589276147461678082,-0.190941917503
1589276147468323289,-0.19082585371
1589276147474937260,-0.190709124614
1589276147481600033,-0.190591734335
1589276147488335386,-0.19047368704
1589276147494935080,-0.190354986949
1589276147501646812,-0.190235638332
1589276147508306953,-0.190115645508
1589276147514943011,-0.189995012843
1589276147521676687,-0.189873744756
1589276147528250267,-0.18975184571
1589276147534911421,-0.189629320218
1589276147541585677,-0.18950617284
1589276147548319125,-0.189382408181
1589276147555024074,-0.189258030895
1589276147561692953,-0.18913304568
1589276147568360181,-0.18900745728
1589276147575040805,-0.188881270484
1589276147581754984,-0.188754490124
1589276147588417318,-0.188627121079
1589276147594980538,-0.188499168269
1589276147601665877,-0.188370636657
1589276147608315182,-0.18824153125
1589276147615013679,-0.188111857097
1589276147621672115,-0.187981619287
1589276147628341521,-0.187850822952
1589276147635010524,-0.187719473265
1589276147641672397,-0.187587575436
1589276147648351423,-0.18745513472
1589276147654956222,-0.187322156407
1589276147661644954,-0.187188645827
1589276147668365867,-0.18705460835
1589276147674963620,-0.186920049383
1589276147681614258,-0.186784974369
1589276147688343815,-0.18664938879
1589276147695011854,-0.186513298164
1589276147701678805,-0.186376708045
1589276147709754620,-0.186239624023
1589276147714962597,-0.186102051723
1589276147721666563,-0.185963996804
1589276147728353274,-0.18582546496
1589276147735020093,-0.185686461919
1589276147741638986,-0.185546993441
1589276147748323081,-0.185407065322
1589276147755046967,-0.185266683386
1589276147761650473,-0.185125853492
1589276147768352436,-0.18498458153
1589276147774909985,-0.184842873421
1589276147781580119,-0.184700735115
1589276147788288141,-0.184558172595
1589276147794980609,-0.18441519187
1589276147801651631,-0.184271798983
1589276147808326630,-0.184128
1589276147814951521,-0.18398380102
1589276147821689352,-0.183839208167
1589276147828320677,-0.183694227593
1589276147834913792,-0.183548865478
1589276147841606947,-0.183403128026
1589276147848299838,-0.18325702147
1589276147855012735,-0.183110552066
1589276147861732266,-0.182963726096
1589276147868323168,-0.182816549866
1589276147875040125,-0.182669029707
1589276147881714422,-0.182521171972
1589276147888294548,-0.18237298304
1589276147894909833,-0.182224469309
1589276147901616226,-0.182075637203
1589276147908348333,-0.181926493164
1589276147914964429,-0.181777043658
1589276147921687896,-0.181627295171
1589276147928263025,-0.18147725421
1589276147934980160,-0.1813269273
1589276147941609860,-0.181176320988
1589276147948355894,-0.181025441837
1589276147954934077,-0.180874296432
1589276147961611757,-0.180722891373
1589276147968348962,-0.18057123328
1589276147974939738,-0.180419328788
1589276147981595508,-0.18026718455
1589276147988296386,-0.180114807235
1589276147995094743,-0.179962203528
1589276148001587057,-0.179809380128
1589276148008323127,-0.17965634375
1589276148014915206,-0.179503101123
1589276148021646073,-0.179349658991
1589276148028379653,-0.179196024108
1589276148035043684,-0.179042203246
1589276148041618207,-0.178888203185
1589276148048315970,-0.17873403072
1589276148054905086,-0.178579692656
1589276148061575996,-0.178425195809
1589276148068380359,-0.178270547007
1589276148075003673,-0.178115753086
1589276148081703676,-0.177960820895
1589276148088332154,-0.17780575729
1589276148094979008,-0.177650569135
1589276148101676264,-0.177495263305
1589276148108351798,-0.17733984668
1589276148114993500,-0.177184326149
1589276148121652210,-0.177028708608
1589276148128370842,-0.17687300096
1589276148134996421,-0.176717210112
1589276148141623555,-0.176561342978
1589276148148286236,-0.176405406478
1589276148155083043,-0.176249407534
1589276148161681629,-0.176093353074
1589276148168354481,-0.17593725003
1589276148175019529,-0.175781105336
1589276148181666006,-0.17562492593
1589276148188411334,-0.175468718751
1589276148195057696,-0.175312490741
1589276148201606093,-0.175156248843
1589276148208312761,-0.175
1589276148214950385,-0.174843751157
1589276148221686161,-0.174687509259
1589276148228303286,-0.174531281249
1589276148234966669,-0.17437507407
1589276148241699294,-0.174218894664
1589276148248291527,-0.17406274997
1589276148254939805,-0.173906646926
1589276148261790041,-0.173750592466
1589276148268292100,-0.173594593522
1589276148274939047,-0.173438657022
1589276148281630147,-0.173282789888
1589276148288350336,-0.17312699904
1589276148294963104,-0.172971291392
1589276148301630084,-0.172815673851
1589276148308315483,-0.17266015332
1589276148315026223,-0.172504736695
1589276148321667006,-0.172349430865
1589276148328336467,-0.17219424271
1589276148334994672,-0.172039179105
1589276148341593689,-0.171884246914
1589276148348252734,-0.171729452993
1589276148355016526,-0.171574804191
1589276148361678275,-0.171420307344
1589276148368390908,-0.17126596928
1589276148374941093,-0.171111796815
1589276148381612225,-0.170957796754
1589276148388269238,-0.170803975892
1589276148394963398,-0.170650341009
1589276148401655976,-0.170496898877
1589276148408323996,-0.17034365625
1589276148414992850,-0.170190619872
1589276148421682883,-0.170037796472
1589276148428298270,-0.169885192765
1589276148434964639,-0.16973281545
1589276148441685977,-0.169580671212
1589276148448353039,-0.16942876672
1589276148454983610,-0.169277108627
1589276148461669940,-0.169125703568
1589276148468297230,-0.168974558163
1589276148474955856,-0.168823679012
1589276148481616195,-0.1686730727
1589276148488311415,-0.16852274579
1589276148495034533,-0.168372704829
1589276148501656119,-0.168222956342
1589276148508305735,-0.168073506836
1589276148515022010,-0.167924362797
1589276148521628225,-0.167775530691
1589276148528253468,-0.16762701696
1589276148535008495,-0.167478828028
1589276148541678626,-0.167330970293
1589276148548335308,-0.167183450134
1589276148554974855,-0.167036273904
1589276148561639565,-0.166889447934
1589276148568293949,-0.16674297853
1589276148574953733,-0.166596871974
1589276148581708162,-0.166451134522
1589276148588294531,-0.166305772407
1589276148594924796,-0.166160791833
1589276148601618184,-0.16601619898
1589276148608271429,-0.165872
1589276148614936608,-0.165728201017
1589276148621676780,-0.16558480813
1589276148628279087,-0.165441827405
1589276148634934833,-0.165299264885
1589276148641666012,-0.165157126579
1589276148648304760,-0.16501541847
1589276148654992452,-0.164874146508
1589276148661658500,-0.164733316614
1589276148668361710,-0.164592934678
1589276148675019602,-0.164453006559
1589276148681695257,-0.164313538081
1589276148688352291,-0.16417453504
1589276148694980771,-0.164036003196
1589276148701670322,-0.163897948277
1589276148708421314,-0.163760375977
1589276148715000742,-0.163623291955
1589276148721689193,-0.163486701836
1589276148728351907,-0.16335061121
1589276148735022936,-0.163215025631
1589276148741687294,-0.163079950617
1589276148748355586,-0.16294539165
1589276148755034721,-0.162811354173
1589276148761687468,-0.162677843593
1589276148768326429,-0.16254486528
1589276148775048922,-0.162412424564
1589276148781736935,-0.162280526735
1589276148788380596,-0.162149177048
1589276148794996415,-0.162018380713
1589276148801681103,-0.161888142903
1589276148808324682,-0.16175846875
1589276148815062514,-0.161629363343
1589276148821678836,-0.161500831731
1589276148828331723,-0.161372878921
1589276148834973975,-0.161245509876
1589276148841628501,-0.161118729516
1589276148848305468,-0.16099254272
1589276148854940990,-0.16086695432
1589276148861577264,-0.160741969105
1589276148868311622,-0.160617591819
1589276148875020005,-0.16049382716
1589276148881691150,-0.160370679782
1589276148888295394,-0.16024815429
1589276148895007973,-0.160126255244
1589276148901701656,-0.160004987157
1589276148908391803,-0.159884354492
1589276148914976308,-0.159764361668
1589276148921679019,-0.159645013051
1589276148928327763,-0.15952631296
1589276148934992749,-0.159408265665
1589276148941696282,-0.159290875386
1589276148948328100,-0.15917414629
1589276148955035783,-0.159058082497
1589276148961687924,-0.158942688072
1589276148968313820,-0.15882796703
1589276148975018308,-0.158713923334
1589276148981657364,-0.158600560893
1589276148988315522,-0.158487883563
1589276148994996870,-0.158375895148
1589276149001636211,-0.158264599396
1589276149008293434,-0.158154
1589276149014948247,-0.1580441006
1589276149021688500,-0.157934904778
1589276149028345291,-0.157826416062
1589276149034946258,-0.157718637922
1589276149041670150,-0.157611573773
1589276149048331005,-0.15750522697
1589276149054965578,-0.157399600812
1589276149061681749,-0.15729469854
1589276149068317693,-0.157190523335
1589276149074946178,-0.157087078318
1589276149081667707,-0.156984366552
1589276149088264476,-0.15688239104
1589276149094890214,-0.156781154723
1589276149101645031,-0.156680660481
1589276149108350058,-0.156580911133
1589276149115026578,-0.156481909436
1589276149121670637,-0.156383658085
1589276149128316853,-0.15628615971
1589276149134976041,-0.15618941688
1589276149141603597,-0.156093432099
1589276149148312239,-0.155998207806
1589276149155049902,-0.155903746376
1589276149161712145,-0.15581005012
1589276149168317277,-0.15571712128
1589276149174942595,-0.155624962035
1589276149181662409,-0.155533574495
1589276149188379471,-0.155442960704
1589276149194962994,-0.155353122639
1589276149201649138,-0.155264062208
1589276149208373070,-0.15517578125
1589276149215015991,-0.155088281536
1589276149221686216,-0.155001564768
1589276149228313775,-0.154915632577
1589276149234999949,-0.154830486524
1589276149241643651,-0.154746128098
1589276149248388974,-0.15466255872
1589276149254995106,-0.154579779736
1589276149261679203,-0.15449779242
1589276149268309435,-0.154416597975
1589276149274953622,-0.154336197531
1589276149281634814,-0.154256592142
1589276149288313746,-0.15417778279
1589276149294996016,-0.154099770382
1589276149301678608,-0.154022555749
1589276149308329665,-0.153946139648
1589276149315037609,-0.15387052276
1589276149321666545,-0.153795705688
1589276149328430411,-0.15372168896
1589276149334945860,-0.153648473025
1589276149341634785,-0.153576058256
1589276149348323318,-0.153504444947
1589276149355017128,-0.153433633312
1589276149361642645,-0.153363623487
1589276149368340169,-0.15329441553
1589276149375064299,-0.153226009416
1589276149381697833,-0.153158405041
1589276149388419089,-0.15309160222
1589276149394999477,-0.153025600685
1589276149401645875,-0.152960400089
1589276149408339772,-0.152896
1589276149415079779,-0.152832399904
1589276149421671535,-0.152769599204
1589276149428405123,-0.152707597218
1589276149435015566,-0.152646393181
1589276149441684143,-0.152585986244
1589276149448442032,-0.15252637547
1589276149455046316,-0.152467559839
1589276149461654567,-0.152409538244
1589276149468377564,-0.152352309491
1589276149475055811,-0.152295872299
1589276149481683798,-0.152240225301
1589276149488383212,-0.15218536704
1589276149495034581,-0.152131295971
1589276149501710936,-0.152078010462
1589276149508437291,-0.152025508789
1589276149515023194,-0.15197378914
1589276149521667215,-0.151922849611
1589276149528295091,-0.15187268821
1589276149534968316,-0.151823302851
1589276149541670924,-0.151774691358
1589276149548393255,-0.151726851462
1589276149554998198,-0.151679780802
1589276149561650274,-0.151633476924
1589276149568319790,-0.15158793728
1589276149574988438,-0.151543159228
1589276149581683104,-0.151499140032
1589276149588362901,-0.15145587686
1589276149595041090,-0.151413366787
1589276149601639529,-0.15137160679
1589276149608304582,-0.15133059375
1589276149614974690,-0.151290324452
1589276149621654719,-0.151250795583
1589276149628364872,-0.151212003733
1589276149635047843,-0.151173945394
1589276149641634178,-0.151136616958
1589276149648286459,-0.15110001472
1589276149655020693,-0.151064134873
1589276149661661743,-0.151028973512
1589276149668383715,-0.150994526632
1589276149675016953,-0.150960790123
1589276149681657357,-0.15092775978
1589276149688354834,-0.15089543129
1589276149694948696,-0.150863800242
1589276149701689054,-0.15083286212
1589276149708348947,-0.150802612305
1589276149715052647,-0.150773046075
1589276149721723141,-0.150744158604
1589276149728360803,-0.15071594496
1589276149734966407,-0.150688400107
1589276149741687839,-0.150661518904
1589276149748358584,-0.150635296103
1589276149755049783,-0.150609726349
1589276149761640935,-0.150584804181
1589276149768369228,-0.15056052403
1589276149775026378,-0.15053688022
1589276149781694510,-0.150513866967
1589276149788365832,-0.150491478376
1589276149795065502,-0.150469708445
1589276149801684379,-0.15044855106
1589276149808386540,-0.150428
1589276149815013696,-0.150408048931
1589276149821635779,-0.150388691407
1589276149828394074,-0.150369920874
1589276149835012073,-0.150351730663
1589276149841679356,-0.150334113993
1589276149848378918,-0.15031706397
1589276149854992563,-0.150300573588
1589276149861668007,-0.150284635725
1589276149868322437,-0.150269243147
1589276149875017725,-0.150254388503
1589276149881638172,-0.150240064328
1589276149888377297,-0.15022626304
1589276149895033526,-0.150212976943
1589276149901660583,-0.150200198221
1589276149908363162,-0.150187918945
1589276149915026562,-0.150176131066
1589276149921730584,-0.150164826416
1589276149928332769,-0.15015399671
1589276149935031682,-0.150143633544
